#####################################################
# (c) Binh Le (bhle2@cs.uh.edu)
#
# Running time: 203.257 (s)
# Repeat      : 11
#
#####################################################
*OBJFILENAME
..\Data\horse-collapse.obj
#####################################################
*BONEANIMATION, BONEINDEX=0, NFRAMES=53
0 1 -1.31819e-014 5.85764e-015 1.77855e-014 0 1 4.38408e-013 3.63614e-013 -2.44851e-013 2.07362e-014 1 -3.16186e-014 0 0 0 1
1 1.0018 -0.00114147 0.000129726 0.00121981 0.00136347 1.00323 0.000893342 -0.00615399 -0.000259996 -0.00310143 1.00125 0.00399304 0 0 0 1
2 1.00347 -0.00270947 0.000378887 0.00293821 0.00288508 1.00681 0.00276471 -0.013538 -0.000611927 -0.00646063 1.00253 0.00826061 0 0 0 1
3 1.00482 -0.00545337 0.00112584 0.00614334 0.00509806 1.01146 0.00692316 -0.0245382 -0.00115071 -0.00967566 1.00399 0.0124437 0 0 0 1
4 1.00584 -0.00883125 0.00171336 0.00986538 0.00703356 1.0165 0.0133536 -0.0369158 -0.00196016 -0.0149835 1.00541 0.0187172 0 0 0 1
5 1.00602 -0.0132908 0.00173186 0.0142888 0.00764184 1.02183 0.0224291 -0.0496396 -0.00310527 -0.0254371 1.00671 0.0301004 0 0 0 1
6 1.0068 -0.0166127 0.000816783 0.0169389 0.0076989 1.02641 0.0342943 -0.0614726 -0.00473786 -0.0381861 1.00756 0.0436996 0 0 0 1
7 1.00985 -0.016296 -0.0017 0.0148511 0.00813693 1.02907 0.0501823 -0.070268 -0.00729443 -0.0513345 1.00758 0.0576623 0 0 0 1
8 1.01392 -0.013633 -0.00531732 0.00967958 0.00743771 1.03006 0.0672018 -0.0777241 -0.00998645 -0.0650721 1.00684 0.0718841 0 0 0 1
9 1.01845 -0.00862602 -0.0101651 0.00135453 0.00392581 1.02915 0.0828193 -0.0847012 -0.0121829 -0.0791662 1.00525 0.0858118 0 0 0 1
10 1.02309 -0.00264318 -0.0150182 -0.00791682 -0.000994546 1.02659 0.097195 -0.0915686 -0.0138473 -0.0929882 1.00287 0.0989378 0 0 0 1
11 1.0266 0.00321118 -0.018732 -0.016307 -0.0076767 1.02272 0.108877 -0.0992358 -0.0141978 -0.10686 0.999459 0.111337 0 0 0 1
12 1.03116 0.00814338 -0.0211938 -0.0227466 -0.0125232 1.01699 0.120168 -0.106944 -0.0148404 -0.117698 0.995785 0.120708 0 0 0 1
13 1.03924 0.00682957 -0.020165 -0.0201363 -0.0105508 1.00547 0.134581 -0.110011 -0.0175384 -0.119879 0.992084 0.122028 0 0 0 1
14 1.04872 0.0117561 -0.0208782 -0.0247375 -0.00626993 0.998717 0.147036 -0.121117 -0.0210382 -0.121348 0.989672 0.123536 0 0 0 1
15 1.05954 0.0411145 -0.0308091 -0.0599647 -0.00282412 1.00872 0.152604 -0.154752 -0.0249752 -0.130022 0.991232 0.134538 0 0 0 1
16 1.068 0.0724657 -0.0409891 -0.0972585 0.000670089 1.02728 0.154342 -0.200815 -0.028446 -0.140367 0.992912 0.14681 0 0 0 1
17 1.0691 0.0861226 -0.043164 -0.111334 0.00411081 1.05143 0.153582 -0.25542 -0.0297332 -0.148902 0.991141 0.154085 0 0 0 1
18 1.06661 0.0920217 -0.0426662 -0.115782 0.00731079 1.07755 0.150579 -0.314408 -0.0309136 -0.157385 0.987755 0.159803 0 0 0 1
19 1.06238 0.0940372 -0.0421607 -0.116319 0.01054 1.10243 0.148954 -0.372247 -0.0326655 -0.168633 0.982869 0.167049 0 0 0 1
20 1.0572 0.0906696 -0.0413949 -0.111284 0.0123242 1.12184 0.139942 -0.429178 -0.0374677 -0.175989 0.978072 0.170615 0 0 0 1
21 1.05238 0.0802905 -0.0410914 -0.0995067 0.010722 1.12889 0.111511 -0.484585 -0.0499595 -0.171324 0.974754 0.163991 0 0 0 1
22 1.04828 0.0671612 -0.0409891 -0.0852202 0.00740468 1.12831 0.0770887 -0.535515 -0.064338 -0.161871 0.973626 0.154163 0 0 0 1
23 1.04576 0.0551012 -0.0407114 -0.0721651 0.00178063 1.12089 0.0454369 -0.577625 -0.0767761 -0.15287 0.976403 0.146957 0 0 0 1
24 1.04461 0.0438075 -0.0413279 -0.0606451 -0.00130322 1.11154 0.0185285 -0.61447 -0.0859855 -0.142168 0.981465 0.139335 0 0 0 1
25 1.04522 0.0343575 -0.0440352 -0.052453 0.00278735 1.10632 0.00272493 -0.648454 -0.0884112 -0.127879 0.987611 0.128429 0 0 0 1
26 1.04667 0.026429 -0.0480758 -0.0468633 0.0140985 1.10256 -0.00637858 -0.678685 -0.087026 -0.114453 0.995302 0.119558 0 0 0 1
27 1.04829 0.0208704 -0.0544012 -0.0455461 0.0379617 1.10068 -0.00854996 -0.704838 -0.0828206 -0.109018 1.00498 0.120579 0 0 0 1
28 1.04981 0.0152468 -0.059081 -0.0431083 0.0631554 1.09748 -0.0113384 -0.727612 -0.0781863 -0.10166 1.0155 0.121013 0 0 0 1
29 1.0507 0.00777958 -0.0576962 -0.034489 0.0798831 1.09009 -0.0246929 -0.749101 -0.0764805 -0.0836556 1.026 0.111999 0 0 0 1
30 1.05103 -0.00265128 -0.0526645 -0.0203607 0.0892029 1.07794 -0.0411822 -0.764799 -0.0757959 -0.058559 1.03598 0.0965455 0 0 0 1
31 1.05062 -0.0186213 -0.044254 0.00161416 0.0858604 1.05837 -0.0577573 -0.77011 -0.0752941 -0.0251018 1.04508 0.0731986 0 0 0 1
32 1.04962 -0.0375428 -0.0344945 0.0274662 0.0789959 1.0347 -0.0712197 -0.767405 -0.0751251 0.0109722 1.05205 0.0464834 0 0 0 1
33 1.04749 -0.0589312 -0.0259827 0.0549112 0.0760295 1.00757 -0.0764885 -0.755264 -0.0752248 0.0441896 1.05506 0.020112 0 0 0 1
34 1.04614 -0.0790522 -0.0172868 0.0812316 0.0768658 0.98239 -0.0761617 -0.740464 -0.0753962 0.0750102 1.05551 -0.00493196 0 0 0 1
35 1.04771 -0.0934824 -0.00760593 0.102605 0.0849886 0.965834 -0.0710358 -0.730303 -0.0751576 0.10183 1.05397 -0.026235 0 0 0 1
36 1.05098 -0.103805 0.00235543 0.120062 0.0970808 0.954819 -0.0614345 -0.721796 -0.0752974 0.125366 1.05103 -0.0443752 0 0 0 1
37 1.05611 -0.109392 0.0127463 0.133054 0.112143 0.948478 -0.047166 -0.713768 -0.0770089 0.145515 1.04787 -0.0582576 0 0 0 1
38 1.06109 -0.112452 0.0218069 0.1425 0.126706 0.946833 -0.0305726 -0.70808 -0.0785956 0.163137 1.04325 -0.0704878 0 0 0 1
39 1.06417 -0.116043 0.0272397 0.149715 0.135854 0.95055 -0.0138459 -0.707068 -0.0788318 0.178794 1.03557 -0.0836318 0 0 0 1
40 1.0647 -0.116991 0.0308072 0.152959 0.142926 0.956832 0.00275421 -0.708137 -0.0774988 0.193276 1.02703 -0.0967129 0 0 0 1
41 1.06043 -0.112619 0.0332453 0.150243 0.150621 0.963307 0.0187652 -0.709292 -0.0734174 0.208198 1.01946 -0.110138 0 0 0 1
42 1.05445 -0.104492 0.0353357 0.143615 0.155936 0.969362 0.0326043 -0.711076 -0.0682444 0.221657 1.0124 -0.122323 0 0 0 1
43 1.04927 -0.0926273 0.0383042 0.133961 0.156182 0.973769 0.0418591 -0.71391 -0.0633035 0.231727 1.00635 -0.131096 0 0 0 1
44 1.04449 -0.0789925 0.0415532 0.122777 0.153112 0.976008 0.0485563 -0.716163 -0.0584145 0.240095 1.00026 -0.138618 0 0 0 1
45 1.04053 -0.06592 0.0447969 0.112116 0.146916 0.974775 0.0542313 -0.715813 -0.053694 0.247933 0.99279 -0.146685 0 0 0 1
46 1.03746 -0.0523326 0.0483254 0.101203 0.139581 0.971196 0.0579455 -0.714445 -0.0495749 0.254862 0.985242 -0.154227 0 0 0 1
47 1.03551 -0.0370146 0.0520491 0.0889029 0.133082 0.964428 0.0598427 -0.711341 -0.046543 0.26077 0.977639 -0.161063 0 0 0 1
48 1.03469 -0.0227142 0.0568207 0.0783649 0.127639 0.959075 0.0582105 -0.711386 -0.0445568 0.266034 0.972436 -0.16633 0 0 0 1
49 1.0354 -0.0131704 0.0640026 0.0741542 0.125638 0.961431 0.0503127 -0.721878 -0.0430135 0.27153 0.973151 -0.168987 0 0 0 1
50 1.03664 -0.00419594 0.0719773 0.0708921 0.122557 0.965583 0.0393642 -0.734866 -0.0440834 0.275642 0.976625 -0.169378 0 0 0 1
51 1.03742 0.00792675 0.079416 0.0637538 0.113232 0.966976 0.0276247 -0.743733 -0.051004 0.276289 0.980938 -0.166931 0 0 0 1
52 1.03815 0.0208675 0.0868149 0.0556436 0.101969 0.967838 0.0152235 -0.751778 -0.0599695 0.275748 0.985885 -0.16335 0 0 0 1
#####################################################
*BONEANIMATION, BONEINDEX=1, NFRAMES=53
0 1 3.644e-014 7.69492e-015 -5.71932e-014 2.21353e-013 1 4.47332e-013 7.19973e-012 1.10676e-013 2.4673e-012 1 -4.10203e-012 0 0 0 1
1 0.994083 0.000360646 -0.000254747 -0.000323696 0.00370525 1.01143 -0.00540672 -0.011796 -0.000644378 -0.00330585 0.999857 0.00505149 0 0 0 1
2 0.986338 0.000814447 -0.000526863 -0.000770949 0.00691214 1.02092 -0.00815098 -0.0239594 -0.001495 -0.0085097 0.999981 0.0123661 0 0 0 1
3 0.973443 0.00149154 -0.000777519 -0.00157963 0.00904608 1.02508 -0.00354881 -0.0368021 -0.00292786 -0.0189722 1.00074 0.0261295 0 0 0 1
4 0.958047 0.00237405 -0.00119272 -0.00253019 0.00983632 1.02643 0.00499856 -0.0508568 -0.00464031 -0.0322037 1.0021 0.0428369 0 0 0 1
5 0.941674 0.00354584 -0.00191841 -0.00357818 0.00855261 1.02639 0.0158152 -0.0671043 -0.00641952 -0.0469433 1.00423 0.0604219 0 0 0 1
6 0.924373 0.00483195 -0.00303598 -0.00443632 0.00599832 1.025 0.0284092 -0.0845116 -0.0083714 -0.0628655 1.00687 0.0787546 0 0 0 1
7 0.907015 0.00611389 -0.00471289 -0.0048028 0.00243835 1.02288 0.0417639 -0.102677 -0.0104294 -0.0792308 1.00985 0.0969052 0 0 0 1
8 0.888668 0.00730605 -0.00683674 -0.00467665 -0.001242 1.0198 0.0557773 -0.12069 -0.0128985 -0.0960199 1.01304 0.115207 0 0 0 1
9 0.868452 0.00823873 -0.00947164 -0.00379844 -0.00386523 1.01552 0.0700645 -0.137202 -0.0162226 -0.112848 1.0164 0.133417 0 0 0 1
10 0.847086 0.00904567 -0.0122554 -0.00264172 -0.00604399 1.0106 0.0844573 -0.153115 -0.0199178 -0.130072 1.01945 0.152337 0 0 0 1
11 0.824401 0.00992023 -0.0148706 -0.00175881 -0.00801314 1.00559 0.099975 -0.16887 -0.0237149 -0.149763 1.02223 0.175074 0 0 0 1
12 0.802177 0.0105138 -0.0172473 -0.000653873 -0.00972845 1.00026 0.112671 -0.184493 -0.027412 -0.166389 1.02317 0.194475 0 0 0 1
13 0.781841 0.010087 -0.0191941 0.00164161 -0.0112822 0.993923 0.119012 -0.199912 -0.0307335 -0.174019 1.01963 0.203443 0 0 0 1
14 0.76429 0.0100057 -0.020758 0.00315725 -0.0125009 0.988593 0.118775 -0.215853 -0.0336309 -0.175927 1.0149 0.204925 0 0 0 1
15 0.751368 0.0118588 -0.021777 0.00148528 -0.0132329 0.985749 0.108934 -0.231752 -0.0363128 -0.173026 1.01175 0.19878 0 0 0 1
16 0.741655 0.0142388 -0.0226858 -0.00109365 -0.013504 0.98633 0.0943566 -0.251397 -0.0377331 -0.166465 1.00919 0.187182 0 0 0 1
17 0.734553 0.016222 -0.0239546 -0.00300049 -0.013108 0.992962 0.0784545 -0.279929 -0.0363951 -0.157273 1.00708 0.171802 0 0 0 1
18 0.729437 0.0179467 -0.025314 -0.00453832 -0.0125899 1.00206 0.0625665 -0.312725 -0.0338589 -0.146727 1.00566 0.154003 0 0 0 1
19 0.724812 0.0191955 -0.0267403 -0.00535469 -0.012552 1.01136 0.048844 -0.347216 -0.0312546 -0.135951 1.00502 0.135083 0 0 0 1
20 0.72269 0.0201128 -0.0279675 -0.00583711 -0.0126178 1.01951 0.0382604 -0.382381 -0.0283757 -0.126433 1.00536 0.116921 0 0 0 1
21 0.725713 0.0205355 -0.0284794 -0.00611654 -0.0120547 1.02507 0.0337422 -0.418181 -0.0253459 -0.120405 1.00715 0.102116 0 0 0 1
22 0.730501 0.0211688 -0.0290029 -0.00661007 -0.0125352 1.02599 0.0315807 -0.449092 -0.0223051 -0.116759 1.00968 0.0898069 0 0 0 1
23 0.7341 0.0227612 -0.0302551 -0.00780036 -0.0161317 1.0184 0.0287498 -0.467408 -0.0192851 -0.114864 1.01261 0.0794809 0 0 0 1
24 0.737872 0.0250206 -0.0317492 -0.00962176 -0.0209129 1.00634 0.026128 -0.479641 -0.0167323 -0.115519 1.01544 0.0726978 0 0 0 1
25 0.742671 0.0281327 -0.0332263 -0.0124324 -0.0263057 0.992437 0.0226907 -0.488848 -0.0148432 -0.119419 1.0179 0.0707177 0 0 0 1
26 0.747077 0.0314133 -0.0347199 -0.0154438 -0.0303079 0.977114 0.0211196 -0.497683 -0.0143988 -0.126249 1.01905 0.0739278 0 0 0 1
27 0.75018 0.0345716 -0.0359746 -0.018609 -0.0303484 0.960512 0.0244813 -0.50872 -0.0164712 -0.136694 1.01741 0.0846431 0 0 0 1
28 0.751304 0.0366133 -0.0375988 -0.0200622 -0.0275602 0.946113 0.0305973 -0.525258 -0.0203843 -0.148451 1.01438 0.09834 0 0 0 1
29 0.748838 0.0365702 -0.0400362 -0.0182195 -0.0223056 0.938213 0.0392185 -0.553266 -0.0260165 -0.159911 1.01059 0.112134 0 0 0 1
30 0.744675 0.0340731 -0.0435257 -0.0121883 -0.0143268 0.934506 0.0476241 -0.587316 -0.0327776 -0.16968 1.00685 0.123423 0 0 0 1
31 0.739876 0.0278478 -0.0488268 0.000561869 -0.00303199 0.934883 0.0523932 -0.624607 -0.0402118 -0.175896 1.00421 0.128616 0 0 0 1
32 0.735328 0.0196411 -0.0548204 0.0167004 0.0102159 0.937048 0.0553779 -0.66323 -0.0477936 -0.178342 1.00257 0.127791 0 0 0 1
33 0.733061 0.0105443 -0.060656 0.0340803 0.0250047 0.938951 0.0574734 -0.700853 -0.0545309 -0.175849 1.0025 0.119154 0 0 0 1
34 0.730697 0.00124949 -0.0662879 0.0516818 0.0390743 0.939744 0.05813 -0.735933 -0.0613668 -0.169406 1.00307 0.10474 0 0 0 1
35 0.726411 -0.00671082 -0.0711545 0.0669359 0.0499651 0.937237 0.0567948 -0.764977 -0.0691808 -0.158788 1.00351 0.0849442 0 0 0 1
36 0.720563 -0.0147662 -0.0759531 0.082344 0.0578627 0.933394 0.0543727 -0.791493 -0.0771733 -0.146462 1.00397 0.0628901 0 0 0 1
37 0.712468 -0.0243231 -0.0814131 0.100427 0.0611303 0.930464 0.0519708 -0.819513 -0.084567 -0.136748 1.0035 0.0451529 0 0 0 1
38 0.703448 -0.0339181 -0.0868756 0.118557 0.0627767 0.925409 0.0484302 -0.843985 -0.0921744 -0.123854 1.00463 0.0217767 0 0 0 1
39 0.694355 -0.0425646 -0.0918683 0.134899 0.0655461 0.914667 0.0425586 -0.859149 -0.100538 -0.101408 1.01057 -0.0185741 0 0 0 1
40 0.68592 -0.0502391 -0.0965604 0.149603 0.068597 0.902057 0.0355637 -0.871165 -0.10969 -0.0754664 1.0183 -0.0651857 0 0 0 1
41 0.67877 -0.0566499 -0.101121 0.162389 0.0728238 0.890264 0.0281648 -0.884301 -0.120795 -0.0492873 1.02594 -0.112125 0 0 0 1
42 0.674082 -0.0616158 -0.105078 0.172712 0.0757619 0.879115 0.0206342 -0.898468 -0.131001 -0.0249025 1.0333 -0.156385 0 0 0 1
43 0.673822 -0.0644608 -0.107818 0.17925 0.0740254 0.869209 0.0136742 -0.915052 -0.137223 -0.00608529 1.03959 -0.19209 0 0 0 1
44 0.676255 -0.0663779 -0.109933 0.184053 0.0712722 0.860923 0.00671402 -0.933892 -0.141322 0.00913117 1.04474 -0.221911 0 0 0 1
45 0.678564 -0.0683882 -0.11169 0.188699 0.0710959 0.854451 -0.000883381 -0.954384 -0.144036 0.0217326 1.04856 -0.24707 0 0 0 1
46 0.685952 -0.0703305 -0.113443 0.193277 0.070303 0.850945 -0.00821696 -0.979234 -0.145652 0.0308888 1.05057 -0.26603 0 0 0 1
47 0.700167 -0.0756864 -0.115136 0.202407 0.0729931 0.857923 -0.0162008 -1.01871 -0.144254 0.0324712 1.05005 -0.272853 0 0 0 1
48 0.728754 -0.0745481 -0.118272 0.204077 0.0608807 0.856481 -0.0200266 -1.04953 -0.147187 0.0373613 1.04749 -0.28197 0 0 0 1
49 0.779186 -0.059245 -0.125628 0.190145 0.0172807 0.834795 -0.0198793 -1.05699 -0.159963 0.0616042 1.04259 -0.314246 0 0 0 1
50 0.85343 -0.0265472 -0.133325 0.153616 -0.0585065 0.779144 -0.00169284 -1.02565 -0.186175 0.0855814 1.03695 -0.344441 0 0 0 1
51 0.963286 0.0354889 -0.137564 0.0760966 -0.182745 0.657853 0.0574234 -0.919055 -0.236307 0.0904974 1.03234 -0.348035 0 0 0 1
52 1.08672 0.108392 -0.140865 -0.0163623 -0.325426 0.512956 0.130811 -0.785421 -0.295194 0.0899292 1.0279 -0.343733 0 0 0 1
#####################################################
*BONEANIMATION, BONEINDEX=2, NFRAMES=53
0 1 -2.6163e-014 -6.51952e-015 5.30312e-016 -1.11723e-013 1 -2.40301e-014 6.68194e-014 1.08783e-013 1.54099e-013 1 -1.13133e-014 0 0 0 1
1 1.00371 0.00213417 -0.00030413 -0.000586807 0.000624665 1.00019 -0.00318135 -0.00307718 -5.35856e-005 0.000660098 0.999872 -5.32757e-005 0 0 0 1
2 1.00867 0.00477024 -0.00103423 -0.0014574 0.000866543 0.999999 -0.00886164 -0.00729357 -0.000699089 0.00165924 0.999784 1.32808e-005 0 0 0 1
3 1.01755 0.00772701 -0.00279599 -0.00282766 0.000299658 0.998957 -0.0227203 -0.0154391 -0.00279443 0.00399718 1.00022 0.000527404 0 0 0 1
4 1.02736 0.0135556 -0.00547627 -0.00518503 -0.00132913 0.996873 -0.0377148 -0.0237008 -0.00613355 0.00603051 0.999885 0.000985257 0 0 0 1
5 1.03596 0.0258768 -0.00884082 -0.00917706 -0.00467934 0.992544 -0.0470758 -0.0282405 -0.0109592 0.00580414 0.996974 0.00086281 0 0 0 1
6 1.04344 0.0413003 -0.0138587 -0.0145392 -0.0089577 0.988543 -0.0556636 -0.0319233 -0.0167834 0.00525229 0.99352 0.000548503 0 0 0 1
7 1.04921 0.0586909 -0.0215749 -0.0214969 -0.0137948 0.987507 -0.0674132 -0.0369874 -0.0234932 0.00579803 0.990841 0.000280714 0 0 0 1
8 1.05303 0.0749044 -0.0315274 -0.029228 -0.0185785 0.98805 -0.0783317 -0.0414759 -0.0302059 0.00701923 0.989284 -1.43352e-005 0 0 0 1
9 1.05437 0.085829 -0.0442922 -0.0371694 -0.0223278 0.990096 -0.085339 -0.0440168 -0.036129 0.00915212 0.989746 -0.00031162 0 0 0 1
10 1.05354 0.0932325 -0.0578008 -0.0447691 -0.0257799 0.992351 -0.0896308 -0.0450937 -0.0408788 0.0116451 0.991897 -0.000669198 0 0 0 1
11 1.05014 0.097203 -0.0716283 -0.0519335 -0.0288863 0.994963 -0.0911532 -0.0449756 -0.0439846 0.014422 0.996207 -0.00105339 0 0 0 1
12 1.04573 0.0986666 -0.0814208 -0.0567248 -0.033023 0.993525 -0.0905746 -0.0429336 -0.0449158 0.0162937 1.00117 -0.00171442 0 0 0 1
13 1.04266 0.0981698 -0.0821041 -0.0567831 -0.0399135 0.983005 -0.0880248 -0.0377047 -0.0423766 0.0135633 1.00644 -0.00204214 0 0 0 1
14 1.0382 0.0969393 -0.0754148 -0.0532812 -0.0484667 0.965431 -0.0850654 -0.0311592 -0.0381916 0.0136779 1.009 -0.00458401 0 0 0 1
15 1.0293 0.0965276 -0.058919 -0.0453452 -0.0590365 0.940643 -0.083721 -0.0248186 -0.0339151 0.0258322 1.00353 -0.0133202 0 0 0 1
16 1.01938 0.0965038 -0.0400545 -0.0367557 -0.0690117 0.91017 -0.0827326 -0.018466 -0.0290609 0.0410855 0.996559 -0.0233425 0 0 0 1
17 1.01114 0.0971874 -0.0269962 -0.0319493 -0.0753939 0.876773 -0.0810982 -0.0125984 -0.0232974 0.0527388 0.993524 -0.0302812 0 0 0 1
18 1.00375 0.0978797 -0.0150983 -0.0280839 -0.0796983 0.836593 -0.0800711 -0.00659584 -0.0177161 0.0632625 0.992421 -0.0365007 0 0 0 1
19 0.997786 0.0983611 -0.00140337 -0.0234044 -0.0827333 0.786814 -0.0802407 0.00031145 -0.0142337 0.07306 0.99264 -0.0429417 0 0 0 1
20 0.991666 0.0975135 0.0109799 -0.0190867 -0.0836204 0.727055 -0.0825973 0.00717637 -0.0100426 0.0816339 0.995433 -0.0495045 0 0 0 1
21 0.983473 0.0931313 0.0189896 -0.0159955 -0.0839112 0.646907 -0.0903784 0.0140846 -0.00246142 0.0841287 1.00343 -0.0563515 0 0 0 1
22 0.974779 0.0882575 0.0254426 -0.0133086 -0.0771227 0.573637 -0.0974325 0.0187077 0.00697294 0.0940232 1.01189 -0.0636377 0 0 0 1
23 0.966543 0.0851973 0.0326188 -0.0102576 -0.0560079 0.535651 -0.0975138 0.0183193 0.0189861 0.128385 1.01586 -0.0717332 0 0 0 1
24 0.958682 0.0839579 0.0390666 -0.0075453 -0.0244105 0.51913 -0.0941433 0.0141988 0.029472 0.171593 1.01862 -0.0801556 0 0 0 1
25 0.952411 0.087272 0.0441419 -0.005969 0.0177319 0.518724 -0.0890473 0.00658644 0.0345983 0.21502 1.02207 -0.0889556 0 0 0 1
26 0.944795 0.0892688 0.0477032 -0.00447639 0.0659481 0.537431 -0.0813635 -0.00412624 0.0342698 0.254747 1.0253 -0.096904 0 0 0 1
27 0.933221 0.0817921 0.0488365 -0.00200661 0.120158 0.583627 -0.0696324 -0.0189964 0.0252161 0.282769 1.02826 -0.102542 0 0 0 1
28 0.917938 0.074431 0.049216 0.000617234 0.167251 0.635819 -0.057372 -0.0334377 0.0131312 0.302707 1.0303 -0.106609 0 0 0 1
29 0.895311 0.0763312 0.0506008 0.00296329 0.18939 0.67539 -0.047292 -0.0426379 0.00247539 0.313278 1.03028 -0.108977 0 0 0 1
30 0.874375 0.0806663 0.0518222 0.00491864 0.200673 0.702084 -0.0403573 -0.0483314 -0.00631944 0.321175 1.02971 -0.110783 0 0 0 1
31 0.865213 0.0829942 0.0518976 0.00611711 0.210019 0.703633 -0.0402261 -0.0499019 -0.0102012 0.33431 1.02992 -0.113427 0 0 0 1
32 0.861044 0.0853086 0.0520275 0.00688658 0.215134 0.697456 -0.0415279 -0.0495899 -0.0125704 0.347739 1.03033 -0.115995 0 0 0 1
33 0.858544 0.0884594 0.053482 0.00740618 0.216523 0.699345 -0.0392354 -0.0495813 -0.0162827 0.359261 1.03087 -0.118021 0 0 0 1
34 0.857418 0.0914363 0.0550703 0.00775606 0.214702 0.701912 -0.0359773 -0.0494234 -0.0199198 0.368561 1.03128 -0.119563 0 0 0 1
35 0.855869 0.0930531 0.0558748 0.00814967 0.210201 0.70263 -0.0326455 -0.0493941 -0.0224634 0.374991 1.0312 -0.120562 0 0 0 1
36 0.85507 0.0946879 0.0563459 0.00836634 0.203488 0.702719 -0.0294233 -0.0494881 -0.0255688 0.377343 1.03086 -0.120894 0 0 0 1
37 0.855505 0.0978852 0.0566543 0.00816074 0.194609 0.702268 -0.026935 -0.0498586 -0.0312255 0.373031 1.03043 -0.120157 0 0 0 1
38 0.857444 0.10096 0.0567216 0.0078203 0.185365 0.702143 -0.0247492 -0.0503081 -0.0374135 0.365545 1.02982 -0.119129 0 0 0 1
39 0.861822 0.101871 0.0562708 0.00760278 0.177942 0.703451 -0.0225906 -0.0506464 -0.042455 0.356846 1.02897 -0.11852 0 0 0 1
40 0.867132 0.103228 0.0560674 0.00735183 0.171234 0.705567 -0.0206147 -0.0510047 -0.0473136 0.348933 1.02803 -0.118124 0 0 0 1
41 0.872153 0.107917 0.0571012 0.00692404 0.164772 0.708483 -0.0188656 -0.0515135 -0.0530129 0.34477 1.02714 -0.117907 0 0 0 1
42 0.876968 0.113057 0.058423 0.0065383 0.158828 0.711463 -0.017402 -0.0519845 -0.0576963 0.343423 1.0262 -0.118061 0 0 0 1
