#####################################################
# (c) Binh Le (bhle2@cs.uh.edu)
#
# Running time: 1492.114 (s)
# Repeat      : 21
#
#####################################################
*OBJFILENAME
..\Data\chickenCrossing.obj
#####################################################
*BONEANIMATION, BONEINDEX=0, NFRAMES=400
0 1 4.62757e-010 -3.06556e-010 6.13023e-008 2.1624e-011 1 -6.75696e-011 5.1175e-011 -2.4889e-010 8.55045e-011 1 4.89395e-009 0 0 0 1
1 1 5.77136e-008 -2.81887e-007 6.75102e-006 7.7405e-008 1 -1.02224e-007 -1.04502e-006 -2.4889e-010 8.55045e-011 1 4.89395e-009 0 0 0 1
2 0.999924 0.000316707 -3.14919e-005 0.00159927 -0.00031013 0.99993 -0.000892351 0.0148244 0.000165694 0.000863335 0.999622 -0.000680856 0 0 0 1
3 0.999503 0.0011776 -9.91623e-006 0.0103139 -0.00143039 0.99965 -0.00314772 0.0604332 0.000215715 0.00326279 0.999917 -0.00412612 0 0 0 1
4 0.999085 0.00262744 0.000366501 0.0146561 -0.00329565 0.999229 -0.00675718 0.135096 0.000517901 0.00703716 0.999839 -0.0106463 0 0 0 1
5 0.998634 0.00468332 0.000687081 0.0192032 -0.00608156 0.998613 -0.0113295 0.239872 0.000738866 0.0117545 0.999685 -0.0144582 0 0 0 1
6 0.997696 0.00748526 0.00126527 0.0326249 -0.009783 0.997837 -0.0167162 0.373335 0.000716721 0.0173004 0.999813 -0.0149398 0 0 0 1
7 0.996601 0.0108586 0.00206874 0.0470333 -0.0145377 0.996907 -0.0225019 0.535318 0.000610518 0.0233301 0.999584 -0.0105187 0 0 0 1
8 0.995298 0.0149349 0.00336997 0.0613014 -0.0202226 0.995801 -0.0284251 0.720412 -5.79354e-005 0.0295802 0.999448 0.0067312 0 0 0 1
9 0.993574 0.0194372 0.00489698 0.0835629 -0.0265072 0.994573 -0.0345143 0.920464 -0.000998422 0.0357728 0.99928 0.030435 0 0 0 1
10 0.992264 0.0247395 0.00663289 0.0926623 -0.0335928 0.992776 -0.0493741 1.21706 -0.00259684 0.0510277 0.99862 0.0668425 0 0 0 1
11 0.990322 0.0305232 0.00917104 0.110265 -0.0412415 0.991043 -0.0593138 1.48257 -0.00492393 0.0611634 0.998104 0.123182 0 0 0 1
12 0.988829 0.0364563 0.0118663 0.115151 -0.0491172 0.990054 -0.0541782 1.61822 -0.00696537 0.0563259 0.998314 0.175963 0 0 0 1
13 0.986889 0.0425553 0.0143322 0.133552 -0.0571628 0.989107 -0.047806 1.74651 -0.00856995 0.0503592 0.998562 0.216625 0 0 0 1
14 0.985187 0.0486054 0.016621 0.147914 -0.0652523 0.988146 -0.0404263 1.86711 -0.00965536 0.0433012 0.998733 0.244381 0 0 0 1
15 0.983513 0.0547039 0.0181237 0.168952 -0.0732457 0.987234 -0.0324182 1.98055 -0.0104075 0.0355537 0.999038 0.26213 0 0 0 1
16 0.981898 0.0605574 0.0193354 0.19168 -0.0810427 0.986313 -0.023802 2.08527 -0.0104109 0.027337 0.999301 0.261054 0 0 0 1
17 0.980269 0.0661038 0.0202768 0.217757 -0.0881945 0.985471 -0.0152429 2.17648 -0.0100207 0.019005 0.999582 0.249736 0 0 0 1
18 0.979108 0.0714204 0.0203483 0.240158 -0.0947924 0.984665 -0.00658685 2.2559 -0.00934998 0.0106304 0.999804 0.232012 0 0 0 1
19 0.978198 0.0761648 0.0204362 0.256654 -0.10053 0.98395 0.0018024 2.31967 -0.00814407 0.00248342 0.999676 0.204192 0 0 0 1
20 0.977104 0.0805248 0.020485 0.278509 -0.105596 0.983311 0.00954856 2.37465 -0.00713353 -0.00506971 0.999721 0.180252 0 0 0 1
21 0.976426 0.0843734 0.0204245 0.291082 -0.110191 0.982715 0.0165519 2.42527 -0.00606586 -0.0118197 0.999674 0.156356 0 0 0 1
22 0.97566 0.0877231 0.020152 0.308062 -0.114273 0.982101 0.0226117 2.47373 -0.00503503 -0.0176594 0.999453 0.138103 0 0 0 1
23 0.974844 0.0906402 0.0201741 0.323957 -0.117808 0.981546 0.0274967 2.52116 -0.00425417 -0.0223072 0.999508 0.126891 0 0 0 1
24 0.974376 0.0929632 0.0201011 0.332222 -0.120689 0.981029 0.0309044 2.56558 -0.00381554 -0.0255615 0.999422 0.125406 0 0 0 1
25 0.973965 0.0947369 0.0201237 0.338606 -0.122938 0.980642 0.0324667 2.60866 -0.00347435 -0.0271114 0.999415 0.1221 0 0 0 1
26 0.973521 0.0959255 0.0203184 0.344839 -0.12456 0.980392 0.0318724 2.65332 -0.00355877 -0.0264078 0.99935 0.126052 0 0 0 1
27 0.973209 0.0966067 0.0206619 0.346933 -0.125576 0.980266 0.0289074 2.7033 -0.00417428 -0.0235136 0.999414 0.140494 0 0 0 1
28 0.972996 0.0966813 0.0210105 0.347095 -0.126053 0.980197 0.0241748 2.75505 -0.00521656 -0.0186107 0.999742 0.161769 0 0 0 1
29 0.973019 0.0961832 0.0214518 0.340994 -0.125869 0.980249 0.0178378 2.80405 -0.00637751 -0.0123861 0.999867 0.186723 0 0 0 1
30 0.973041 0.0951938 0.0219619 0.334795 -0.125202 0.980342 0.0104697 2.84981 -0.00769458 -0.00520165 0.999807 0.216466 0 0 0 1
31 0.972955 0.093674 0.0227193 0.329547 -0.123902 0.98048 0.00240467 2.88564 -0.0092513 0.00265143 1.00013 0.248328 0 0 0 1
32 0.973213 0.0915375 0.0231888 0.318681 -0.122178 0.980602 -0.00560848 2.91026 -0.0109177 0.0106272 1.00004 0.286512 0 0 0 1
33 0.973456 0.0889969 0.0238106 0.307135 -0.119874 0.980757 -0.0134343 2.9185 -0.0123141 0.0183032 0.999681 0.320422 0 0 0 1
34 0.973674 0.0858603 0.024079 0.299776 -0.117107 0.980985 -0.0205555 2.90875 -0.0135758 0.0253102 0.999669 0.348366 0 0 0 1
35 0.974095 0.0822134 0.0245073 0.286194 -0.113835 0.981242 -0.0264164 2.87505 -0.0145352 0.0311257 0.999615 0.369948 0 0 0 1
36 0.974613 0.0781269 0.0244744 0.274498 -0.110109 0.9816 -0.030706 2.81589 -0.015264 0.035411 0.999437 0.388001 0 0 0 1
37 0.975141 0.0733096 0.0243049 0.264201 -0.105802 0.982084 -0.0329662 2.72401 -0.0153055 0.0376549 0.999451 0.388556 0 0 0 1
38 0.975812 0.0679522 0.0240292 0.25152 -0.101033 0.982657 -0.0333104 2.60346 -0.0149329 0.037979 0.999502 0.379801 0 0 0 1
39 0.976336 0.0621096 0.0235577 0.244514 -0.0957648 0.983341 -0.0320992 2.45647 -0.0142887 0.036917 0.999241 0.367975 0 0 0 1
40 0.977242 0.0555489 0.0225316 0.233075 -0.089899 0.984099 -0.0297144 2.28399 -0.0131177 0.0346165 0.999536 0.338807 0 0 0 1
41 0.978108 0.0484534 0.0211038 0.226442 -0.0834221 0.984909 -0.0263299 2.08722 -0.0116423 0.0313418 0.999559 0.305078 0 0 0 1
42 0.978989 0.0407138 0.0199524 0.217196 -0.0763807 0.985732 -0.0220706 1.86849 -0.010018 0.0271552 0.999658 0.267553 0 0 0 1
43 0.979823 0.032449 0.0186401 0.210725 -0.0686449 0.98654 -0.0172775 1.62756 -0.00826841 0.0223983 0.999729 0.227515 0 0 0 1
44 0.980897 0.0234769 0.0168378 0.202803 -0.0602513 0.987316 -0.011991 1.36573 -0.00615664 0.0171449 0.999773 0.178887 0 0 0 1
45 0.981783 0.0140079 0.0148906 0.200972 -0.0511953 0.98802 -0.00664 1.08671 -0.00415585 0.0117256 0.999772 0.133551 0 0 0 1
46 0.984112 -0.00956011 0.0107433 0.191183 -0.0259967 0.989391 -0.00148175 0.400206 -0.000969511 0.00597988 0.999764 0.0580826 0 0 0 1
47 0.986654 -0.0540085 0.00345393 0.217919 0.0229501 0.990229 0.00325946 -0.884935 0.00373765 -0.000514757 0.999817 -0.0564831 0 0 0 1
48 0.986351 -0.109841 -0.00482349 0.33376 0.084003 0.987928 0.00785518 -2.47646 0.00873052 -0.0074872 0.999518 -0.175074 0 0 0 1
49 0.981221 -0.16719 -0.0119229 0.562789 0.145485 0.981622 0.0124565 -4.08131 0.0129138 -0.0146258 0.999166 -0.272444 0 0 0 1
50 0.971814 -0.225039 -0.0181482 0.891896 0.206333 0.971399 0.0170775 -5.6717 0.016529 -0.0219895 0.998769 -0.354616 0 0 0 1
51 0.957342 -0.287126 -0.0250797 1.35743 0.271568 0.956304 0.0217258 -7.37144 0.0197306 -0.0299533 0.998298 -0.42505 0 0 0 1
52 0.937277 -0.351075 -0.0322458 1.96753 0.338849 0.936095 0.0257727 -9.11487 0.0226331 -0.0380576 0.997757 -0.487051 0 0 0 1
53 0.912352 -0.414569 -0.0394982 2.70123 0.405839 0.911163 0.0285694 -10.8367 0.0252176 -0.0458198 0.997192 -0.540936 0 0 0 1
54 0.882979 -0.475722 -0.0465675 3.54473 0.470323 0.88216 0.0300856 -12.4804 0.0275457 -0.0527307 0.996389 -0.586789 0 0 0 1
55 0.850559 -0.532569 -0.0531694 4.45884 0.530149 0.850449 0.0300672 -13.9895 0.0296632 -0.0584276 0.995903 -0.631077 0 0 0 1
56 0.816579 -0.583578 -0.0591184 5.40328 0.583831 0.817644 0.0283109 -15.3254 0.03188 -0.0626857 0.995508 -0.679954 0 0 0 1
57 0.783669 -0.627513 -0.0638803 6.30579 0.629842 0.785857 0.0248786 -16.4507 0.034534 -0.0650887 0.995126 -0.741701 0 0 0 1
58 0.753654 -0.663362 -0.0674656 7.11944 0.667171 0.757175 0.0197116 -17.3406 0.0377857 -0.0653516 0.995001 -0.822917 0 0 0 1
59 0.729138 -0.690498 -0.0690941 7.77077 0.694901 0.733817 0.0130642 -17.9752 0.0418315 -0.0633962 0.994842 -0.92619 0 0 0 1
60 0.709988 -0.710459 -0.0702242 8.27912 0.715002 0.715788 0.00349171 -18.39 0.0478436 -0.0583563 0.994811 -1.08391 0 0 0 1
61 0.695056 -0.725198 -0.0708934 8.67707 0.729473 0.702142 -0.00924581 -18.6318 0.0568399 -0.0507287 0.994524 -1.3184 0 0 0 1
62 0.685562 -0.734122 -0.0710502 8.93137 0.737848 0.693844 -0.0241861 -18.6984 0.0676792 -0.0412395 0.994231 -1.60192 0 0 0 1
63 0.682636 -0.736948 -0.0711757 9.01564 0.739563 0.691744 -0.0400521 -18.588 0.0796886 -0.0305497 0.993749 -1.91474 0 0 0 1
64 0.684227 -0.735493 -0.0737471 9.00505 0.736562 0.693959 -0.0565384 -18.3529 0.0940299 -0.0205657 0.992619 -2.28142 0 0 0 1
65 0.687384 -0.732797 -0.0733931 8.92903 0.731977 0.697548 -0.0723206 -18.0846 0.105807 -0.00913408 0.991739 -2.58517 0 0 0 1
66 0.692388 -0.728493 -0.0733684 8.80856 0.725809 0.702606 -0.0862534 -17.7944 0.116255 0.00137404 0.990355 -2.84946 0 0 0 1
67 0.698908 -0.722649 -0.0738672 8.65324 0.718375 0.709103 -0.0972755 -17.5006 0.124369 0.0100452 0.989167 -3.05406 0 0 0 1
68 0.706703 -0.715415 -0.0742662 8.46324 0.709986 0.717044 -0.104424 -17.2208 0.129813 0.016196 0.988548 -3.19291 0 0 0 1
69 0.715853 -0.706681 -0.0749635 8.23949 0.700958 0.726335 -0.106461 -16.975 0.1315 0.0189104 0.988245 -3.23529 0 0 0 1
70 0.725956 -0.696436 -0.0758267 7.99738 0.692046 0.7371 -0.0979139 -16.838 0.1261 0.0135602 0.988911 -3.09729 0 0 0 1
71 0.737275 -0.684642 -0.0772836 7.73604 0.683171 0.749029 -0.0772612 -16.8223 0.112716 -0.000896474 0.990762 -2.757 0 0 0 1
72 0.74833 -0.672969 -0.0784426 7.4795 0.676131 0.760174 -0.0498731 -16.9176 0.0952451 -0.0209699 0.992266 -2.30433 0 0 0 1
73 0.75833 -0.662961 -0.0791087 7.24042 0.672728 0.76882 -0.0211532 -17.1134 0.0770994 -0.0428739 0.993098 -1.82769 0 0 0 1
74 0.768474 -0.65493 -0.0789677 6.97883 0.671952 0.775337 0.00367672 -17.3314 0.0611829 -0.0619456 0.993406 -1.4073 0 0 0 1
75 0.778605 -0.648357 -0.0778386 6.68987 0.672505 0.78029 0.0191375 -17.484 0.0506482 -0.0737949 0.993243 -1.12851 0 0 0 1
76 0.788568 -0.642916 -0.0761942 6.3836 0.672846 0.784216 0.0281496 -17.5599 0.044248 -0.0804459 0.993012 -0.960954 0 0 0 1
77 0.797626 -0.638021 -0.0746651 6.09227 0.671935 0.787175 0.036773 -17.5932 0.0372295 -0.0868926 0.992924 -0.780339 0 0 0 1
78 0.807964 -0.63013 -0.0727098 5.7549 0.667069 0.792011 0.0452432 -17.5177 0.0301417 -0.0930046 0.992777 -0.598799 0 0 0 1
79 0.822182 -0.616664 -0.0703823 5.30625 0.656348 0.800919 0.0536851 -17.2867 0.02299 -0.0989644 0.992408 -0.414932 0 0 0 1
80 0.839083 -0.5984 -0.0680592 4.78337 0.640512 0.813005 0.0618667 -16.9188 0.0160937 -0.104781 0.992315 -0.241181 0 0 0 1
81 0.857946 -0.576037 -0.0652649 4.20355 0.620196 0.827269 0.0698106 -16.4322 0.00969743 -0.110285 0.991961 -0.0790048 0 0 0 1
82 0.877164 -0.550676 -0.0624161 3.6147 0.596252 0.842707 0.0773228 -15.8487 0.00371037 -0.115749 0.991582 0.0721265 0 0 0 1
83 0.895776 -0.523041 -0.0592595 3.04202 0.569716 0.858394 0.0842144 -15.1949 -0.00192944 -0.120844 0.991345 0.212245 0 0 0 1
84 0.913063 -0.493897 -0.0560302 2.50883 0.541412 0.873603 0.0906538 -14.4954 -0.00676879 -0.125584 0.990922 0.332992 0 0 0 1
85 0.928548 -0.464535 -0.0529723 2.03246 0.512051 0.887865 0.0959461 -13.7642 -0.0114077 -0.129984 0.990686 0.446519 0 0 0 1
86 0.940941 -0.435927 -0.04962 1.64296 0.482671 0.900438 0.10072 -13.0316 -0.0151907 -0.133806 0.990348 0.53884 0 0 0 1
87 0.95018 -0.409021 -0.0469355 1.34179 0.454385 0.911019 0.104781 -12.3217 -0.0185628 -0.137041 0.990161 0.619263 0 0 0 1
88 0.956314 -0.385187 -0.0444344 1.12373 0.427946 0.919569 0.107613 -11.6499 -0.021245 -0.139682 0.989991 0.682175 0 0 0 1
89 0.959535 -0.365361 -0.0424666 0.987099 0.404528 0.926049 0.109665 -11.0508 -0.0234979 -0.141657 0.989972 0.733206 0 0 0 1
90 0.95996 -0.351028 -0.040419 0.923747 0.385684 0.930393 0.111015 -10.5652 -0.0248107 -0.142847 0.990084 0.759762 0 0 0 1
91 0.958829 -0.343642 -0.0389385 0.908222 0.373571 0.932417 0.111568 -10.2477 -0.0256848 -0.143273 0.990279 0.775244 0 0 0 1
92 0.957629 -0.33983 -0.0376585 0.897682 0.365746 0.933459 0.111162 -10.0332 -0.0258004 -0.142964 0.990264 0.774191 0 0 0 1
93 0.957363 -0.335377 -0.0361945 0.861183 0.358068 0.934987 0.10989 -9.81515 -0.0258699 -0.142126 0.990593 0.769827 0 0 0 1
94 0.957927 -0.329689 -0.0354592 0.807186 0.34973 0.937104 0.107149 -9.56532 -0.0247164 -0.140116 0.990981 0.734732 0 0 0 1
95 0.958895 -0.321435 -0.0347409 0.738717 0.339533 0.939922 0.102901 -9.25357 -0.0226558 -0.136282 0.991406 0.676678 0 0 0 1
96 0.960663 -0.310684 -0.0348427 0.654657 0.32682 0.943576 0.0971995 -8.86859 -0.0191572 -0.131046 0.991906 0.581961 0 0 0 1
97 0.963705 -0.296948 -0.035562 0.542339 0.311178 0.948403 0.0902807 -8.40692 -0.0146983 -0.124693 0.992371 0.463641 0 0 0 1
98 0.967599 -0.280236 -0.0368591 0.41203 0.292481 0.954089 0.08259 -7.86937 -0.00975788 -0.11739 0.993212 0.33013 0 0 0 1
99 0.972509 -0.259973 -0.0384859 0.256018 0.270592 0.960673 0.0744484 -7.25122 -0.00399513 -0.109505 0.99385 0.177968 0 0 0 1
100 0.976964 -0.23948 -0.0403923 0.113497 0.24876 0.966983 0.0659735 -6.63413 0.00184333 -0.100931 0.994353 0.0252829 0 0 0 1
101 0.98055 -0.221186 -0.0425644 -0.00323286 0.230131 0.97235 0.0571926 -6.09672 0.00743979 -0.0918102 0.994827 -0.120871 0 0 0 1
102 0.983214 -0.205554 -0.0448711 -0.093724 0.214866 0.976682 0.0485965 -5.64603 0.0128608 -0.0826165 0.995113 -0.260695 0 0 0 1
103 0.985211 -0.192066 -0.0473851 -0.16407 0.203106 0.980249 0.0399988 -5.28273 0.0179292 -0.0735428 0.995494 -0.392304 0 0 0 1
104 0.987605 -0.178996 -0.050801 -0.236114 0.194352 0.984962 0.0330682 -5.00887 0.0227537 -0.0647622 0.995753 -0.516623 0 0 0 1
105 0.989292 -0.169558 -0.0538603 -0.290448 0.189059 0.988111 0.0262451 -4.81896 0.0271586 -0.0568605 0.995688 -0.627236 0 0 0 1
106 0.990836 -0.162786 -0.0559839 -0.34688 0.186821 0.989485 0.020055 -4.70587 0.0308867 -0.0501509 0.995845 -0.722491 0 0 0 1
107 0.993283 -0.157735 -0.0580545 -0.424319 0.186898 0.990661 0.0152679 -4.65737 0.0334425 -0.0448096 0.995828 -0.786399 0 0 0 1
108 0.996206 -0.153565 -0.0607862 -0.506155 0.188163 0.993974 0.0116091 -4.64507 0.0356194 -0.0400515 0.995697 -0.839602 0 0 0 1
109 0.998386 -0.150793 -0.0638057 -0.564509 0.189226 0.996755 0.00811654 -4.62549 0.0373662 -0.035627 0.995788 -0.883321 0 0 0 1
110 1.00006 -0.148343 -0.0662598 -0.613596 0.189987 0.997897 0.00501143 -4.59772 0.0393786 -0.0315008 0.99574 -0.932132 0 0 0 1
111 1.00117 -0.146117 -0.0685042 -0.648762 0.19073 0.998301 0.00256019 -4.57252 0.0410861 -0.0277359 0.995942 -0.975084 0 0 0 1
112 1.00159 -0.144066 -0.0702886 -0.669234 0.191159 0.997583 0.000898639 -4.54377 0.0428777 -0.0243923 0.995733 -1.01626 0 0 0 1
113 1.00115 -0.142216 -0.0713402 -0.673291 0.191446 0.995599 -1.54166e-005 -4.51585 0.0445118 -0.0216761 0.995799 -1.05557 0 0 0 1
114 0.999993 -0.141 -0.0717259 -0.663382 0.191794 0.992992 -0.00060948 -4.49104 0.0461743 -0.0194712 0.995578 -1.09296 0 0 0 1
115 0.998537 -0.140217 -0.0726135 -0.640252 0.192412 0.99098 -0.00109654 -4.47405 0.0475125 -0.017855 0.995407 -1.12251 0 0 0 1
116 0.996805 -0.139311 -0.0729892 -0.613966 0.192897 0.989561 -0.00100661 -4.45929 0.0487927 -0.0168005 0.995414 -1.15224 0 0 0 1
117 0.994599 -0.138039 -0.0735196 -0.573885 0.192837 0.988338 -0.000189813 -4.43783 0.0497245 -0.0163646 0.995363 -1.17278 0 0 0 1
118 0.992239 -0.136365 -0.0739254 -0.530828 0.192108 0.987319 0.00126355 -4.40617 0.0504284 -0.0165143 0.995393 -1.18852 0 0 0 1
119 0.989299 -0.133865 -0.0737592 -0.478487 0.190517 0.986557 0.00344137 -4.36063 0.0507517 -0.0172866 0.995283 -1.19373 0 0 0 1
120 0.985824 -0.132192 -0.07354 -0.412895 0.189622 0.985793 0.00632257 -4.34137 0.050609 -0.018804 0.995112 -1.18702 0 0 0 1
121 0.98158 -0.132849 -0.073142 -0.328818 0.19091 0.98477 0.00995703 -4.38727 0.0500141 -0.0212252 0.995295 -1.17248 0 0 0 1
122 0.976344 -0.135592 -0.0724429 -0.223028 0.194071 0.983504 0.0144958 -4.49323 0.0489957 -0.0244152 0.995351 -1.14655 0 0 0 1
123 0.970559 -0.139968 -0.0716216 -0.105932 0.198724 0.981986 0.0198526 -4.6497 0.0471798 -0.0283407 0.995214 -1.09902 0 0 0 1
124 0.96411 -0.145805 -0.0701619 0.02174 0.204531 0.980168 0.0257431 -4.84498 0.044937 -0.0328428 0.995196 -1.04201 0 0 0 1
125 0.956937 -0.152838 -0.0685261 0.166449 0.21112 0.978171 0.0321488 -5.06911 0.0420974 -0.0379752 0.995116 -0.969462 0 0 0 1
126 0.94962 -0.160658 -0.066682 0.313154 0.218037 0.975988 0.0390559 -5.30912 0.0388637 -0.043376 0.994899 -0.885985 0 0 0 1
127 0.942054 -0.169243 -0.0645452 0.46334 0.225276 0.973675 0.0461194 -5.56051 0.0351793 -0.048927 0.994954 -0.793734 0 0 0 1
128 0.934812 -0.178218 -0.0622572 0.603576 0.232681 0.971263 0.0534935 -5.82027 0.031176 -0.0545988 0.994868 -0.692324 0 0 0 1
129 0.927666 -0.187563 -0.059282 0.735009 0.240057 0.968803 0.0608563 -6.08016 0.0269511 -0.0602819 0.994561 -0.583456 0 0 0 1
130 0.921389 -0.196992 -0.0563254 0.844296 0.247646 0.966279 0.0681018 -6.3449 0.0225405 -0.0657565 0.99421 -0.469691 0 0 0 1
131 0.915445 -0.206341 -0.0529266 0.940972 0.255294 0.963763 0.0752436 -6.61032 0.0181589 -0.0710894 0.994145 -0.359248 0 0 0 1
132 0.910099 -0.215131 -0.0494805 1.02175 0.263107 0.961215 0.0821933 -6.87787 0.0135397 -0.0761152 0.993828 -0.240657 0 0 0 1
133 0.90585 -0.223415 -0.0460506 1.07474 0.270712 0.958897 0.0886947 -7.13554 0.00892066 -0.0807854 0.993522 -0.122216 0 0 0 1
134 0.9032 -0.232004 -0.0419851 1.08221 0.280702 0.957029 0.0948878 -7.45013 0.00508323 -0.085031 0.99307 -0.0223625 0 0 0 1
135 0.903214 -0.240518 -0.0380047 1.0236 0.293739 0.95543 0.100849 -7.83861 0.00217039 -0.0887663 0.992623 0.0539251 0 0 0 1
136 0.905307 -0.247476 -0.0339039 0.91117 0.305602 0.954574 0.106241 -8.19083 -0.000498109 -0.0921229 0.992318 0.122845 0 0 0 1
137 0.907742 -0.251834 -0.0301051 0.792374 0.313491 0.954272 0.111003 -8.4346 -0.00347684 -0.0949837 0.991962 0.200181 0 0 0 1
138 0.909615 -0.253279 -0.0260509 0.685349 0.317727 0.954502 0.115001 -8.57649 -0.00659465 -0.0973627 0.991495 0.282159 0 0 0 1
139 0.912302 -0.252274 -0.0224994 0.562521 0.319064 0.955357 0.118269 -8.63566 -0.0090163 -0.0994032 0.991105 0.346063 0 0 0 1
140 0.914948 -0.249258 -0.0193965 0.445234 0.317876 0.956505 0.120855 -8.62226 -0.0111231 -0.101014 0.991046 0.39911 0 0 0 1
141 0.917671 -0.245017 -0.0169189 0.332234 0.315232 0.957785 0.122592 -8.56266 -0.0126246 -0.102337 0.990875 0.437815 0 0 0 1
142 0.920482 -0.239856 -0.0156181 0.228204 0.311145 0.959164 0.123792 -8.46015 -0.0139193 -0.10348 0.990685 0.471459 0 0 0 1
143 0.922827 -0.233932 -0.0144877 0.138337 0.305784 0.960626 0.124598 -8.32054 -0.014952 -0.104362 0.990598 0.49752 0 0 0 1
144 0.924998 -0.227145 -0.014134 0.0604092 0.29925 0.962226 0.125294 -8.1492 -0.0155945 -0.105121 0.990584 0.513078 0 0 0 1
145 0.927128 -0.219616 -0.014263 -0.0115796 0.291855 0.963909 0.125829 -7.95378 -0.0159402 -0.105602 0.990379 0.522711 0 0 0 1
146 0.929042 -0.211419 -0.0143587 -0.0778163 0.283631 0.965654 0.126321 -7.73643 -0.0159576 -0.106046 0.990537 0.520848 0 0 0 1
147 0.93062 -0.202683 -0.0147627 -0.13232 0.274839 0.967386 0.126635 -7.50269 -0.0157719 -0.106159 0.990365 0.516592 0 0 0 1
148 0.932037 -0.193497 -0.015394 -0.180313 0.265527 0.969075 0.126783 -7.25413 -0.0152673 -0.106257 0.990476 0.501801 0 0 0 1
149 0.933393 -0.18385 -0.0160179 -0.226579 0.25583 0.970707 0.126813 -6.99478 -0.014825 -0.106254 0.990666 0.487818 0 0 0 1
150 0.93442 -0.174102 -0.0166159 -0.264452 0.245837 0.972218 0.126797 -6.72777 -0.014254 -0.106067 0.990698 0.471879 0 0 0 1
151 0.935429 -0.164292 -0.0173543 -0.300575 0.235771 0.973613 0.126664 -6.45833 -0.0137134 -0.105636 0.990831 0.455643 0 0 0 1
152 0.936321 -0.154519 -0.0178758 -0.335688 0.225728 0.974897 0.126365 -6.18869 -0.0128885 -0.105098 0.990671 0.434699 0 0 0 1
153 0.93701 -0.144955 -0.0185414 -0.364475 0.215805 0.976086 0.125745 -5.92003 -0.0123923 -0.104487 0.990882 0.418688 0 0 0 1
